# Profile Compression settings. Method: Running Average. using 1 datapoints
# Profile Smoothing is Disabled
#	C-	O-	Si-	CF-	^34S-	In-	
#	12.0009	15.9967	27.9977	30.9992	33.9682	114.9025	
#Depth (nm)	Intensity(Background Corrected)	Intensity(Background Corrected)	Intensity(Background Corrected)	Intensity(Background Corrected)	Intensity(Background Corrected)	Intensity(Background Corrected)	
1.76617	1956.28	6358.24	3.0007	3417.2	22.0188	12.0164	
5.29851	1786.12	6145.07	2.00037	3249.49	26.027	10.0151	
8.83084	1822.85	6010.69	9.00266	3237.74	26.0302	10.0127	
12.3632	1690.37	5848.76	3.00064	3135.67	21.016	11.0132	
15.8955	1730.34	5906.67	2.00024	3149.37	24.0205	5.004	
19.4279	1662.68	5904.75	4.00098	3062.13	14.006	5.00467	
22.9602	1749.13	5800.8	1.00021	3132.83	17.013	7.00681	
26.4925	1778.09	5835.33	4.00073	3222.68	16.0117	11.0093	
30.0249	1683.62	5967.16	2.00055	3094.33	18.0188	8.01296	
33.5572	1595.4	5897.45	1.00003	2921.88	29.0292	2.00153	
37.0895	1771.63	5931.47	4.00073	3085.46	20.0147	9.0092	
40.6219	1782.78	5830.76	6.00244	3020.6	19.0145	2.0011	
44.1542	1657.15	5820.18	1.00009	3079.84	18.0121	9.00736	
47.6866	1733.56	5815.49	4.00049	3014.99	23.0187	6.00617	
51.2189	1686.05	5651.22	6.0022	3037.82	23.0176	7.00669	
54.7512	1716.9	5770.05	6.00202	3096.66	18.0143	8.00984	
58.2836	1802.86	5773.74	2.00037	3047.49	19.0145	8.00898	
61.8159	1608.53	5765.2	2.00024	3087.71	27.0289	7.00687	
65.3483	1638.56	5622.58	4.00098	3037.24	22.0233	4.00287	
68.8806	1684.83	5587.36	4.00073	3043.26	27.0305	6.00391	
72.4129	1619.46	5762.2	6.00195	3054.31	23.0176	7.0081	
75.9453	1588.58	5622.17	3.00089	2980.36	25.0267	5.00522	
79.4776	1647.08	5609.61	4.00122	2928.06	13.006	4.00354	
83.0099	1649.3	5604.44	1.00009	3008.57	22.0242	12.0201	
86.5423	1709.12	5702.08	3.00046	3045.46	12.0066	6.00721	
90.0746	1686.94	5646.75	1.00009	3051.28	28.0277	10.0148	
93.607	1753.7	5753.25	1.00003	3118.51	16.0108	9.01073	
97.1393	1653.72	5807.5	3.00052	3102.37	17.0119	9.00907	
100.672	1611.74	5762.36	5.00143	3017.6	12.0051	6.00666	
104.204	1632.93	5686.33	3.00027	2995.96	20.0147	9.01293	
107.736	1708.23	5507.15	2.00037	3020.58	18.0132	9.00602	
111.269	1668.11	5678.11	6.00147	3057.66	19.0145	6.00617	
114.801	1588.69	5857.49	6.0022	3076.01	22.0175	9.00785	
118.333	1670.43	5659.87	2.00037	2910.13	23.0218	7.00865	
121.866	1645.08	5785.13	1.00021	2982.36	17.013	6.0085	
125.398	1616.26	5846.62	2.00037	3027.02	14.0086	8.00831	
128.93	1657.15	5578.3	3.00027	3019.19	23.0189	8.01143	
132.463	1635.03	5647.57	3.00082	3101.79	15.0087	4.00367	
135.995	1599.71	5726.01	2.00043	3038.85	27.0289	7.00455	
139.527	1641.66	5683.74	2.00037	3024.8	20.0147	7.00773	
143.06	1645.19	5575.9	4.00073	2916.1	18.0165	4.00464	
146.592	1668.11	5429.35	5.00107	2976.16	16.0088	9.0092	
150.124	1616.15	5588.18	3.00064	3070.77	19.0145	7.00834	
153.657	1563.36	5655.22	2.00012	3030.02	28.0257	5.00382	
157.189	1621.67	5590.77	4.00085	3044.46	16.0117	13.014	
160.721	1599.71	5550.23	4.00073	3011.78	23.019	5.00504	
164.254	1688.05	5562.66	1.00009	2999.57	21.016	8.00898	
167.786	1682.83	5700.32	4.00073	2979.96	22.0188	1.00082	
171.318	1603.02	5563.25	6.0011	2953.58	27.0289	11.0124	
174.851	1722.45	5700.66	0	3021.19	19.0157	7.00706	
178.383	1678.08	5644.51	4.00085	3011.18	24.0235	7.00914	
181.915	1730.23	5588.91	0	3006.57	16.0108	4.00489	
185.448	1667.32	5745.3	4.00098	2978.56	23.0162	3.00211	
188.98	1675.97	5621.35	2.00018	3072.6	22.0175	4.00532	
192.512	1743.57	5579.3	4.00098	3033.8	19.0157	4.00373	
196.045	1639.45	5604.28	5.00107	3009.78	12.0051	8.0088	
199.577	1638.24	5713.23	1.00027	3024.21	19.0168	12.0141	
203.109	1699.47	5639.87	5.00198	3083.05	19.0168	7.01171	
206.642	1649.3	5504.76	1.00009	2969.36	18.011	5.0048	
210.174	1680.29	5570.68	6.00189	2955.98	21.0173	10.0134	
213.706	1579.77	5520.76	5.00137	3055.31	11.0064	3.00302	
217.239	1650.4	5497.96	2.00073	2954.19	23.0274	6.00544	
220.771	1673.75	5533.99	0	2873.33	17.0088	4.00342	
224.303	1646.08	5602.85	2.00049	2971.96	23.0204	7.00547	
227.836	1560.26	5585.96	5.00076	3021.8	20.0147	6.00587	
231.368	1614.15	5462.43	1.00009	2956.98	20.0147	10.0093	
234.9	1679.29	5530.98	2.00024	2957.57	23.0204	8.01149	
238.433	1620.67	5453.84	4.00098	2923.48	16.0116	6.00458	
241.965	1647.08	5494.17	2.00024	3060.33	19.0122	6.00519	
245.497	1625.09	5581.33	3.00107	2931.64	17.0119	5.00547	
249.03	1635.03	5668.87	1.00009	2989.96	24.0235	9.01244	
252.562	1654.83	5539.22	4.00073	3004.97	24.0235	1.00076	
256.095	1615.26	5607.85	4.00104	2980.96	16.0088	6.00605	
259.627	1674.86	5639.59	0	2978.36	20.017	3.00302	
263.159	1761.38	5518.97	4.00098	2931.84	21.0173	5.00443	
266.692	1688.27	5400.33	3.0007	3009.57	9.00357	2.00202	
270.224	1650.4	5499.37	3.00046	3066.25	20.0136	9.00858	
273.756	1684.72	5602.22	7.00205	2979.16	17.0121	5.00547	
277.289	1664.79	5522.79	4.00073	2943.61	19.0157	8.00794	
280.821	1616.26	5564.78	3.00064	2954.98	20.0147	6.00556	
284.353	1644.98	5552.82	3.0007	2878.48	14.0094	9.00944	
287.886	1639.56	5590.77	2.00024	2897.19	22.0175	8.00684	
291.418	1644.98	5522.16	3.00046	2996.56	18.0121	4.0025	
294.95	1565.56	5322.9	4.00049	3064.59	18.0132	6.00574	
298.483	1692.48	5441.89	1.00027	2871.95	18.0099	7.00749	
302.015	1609.74	5512.09	3.00046	2966.76	19.0145	6.00464	
305.547	1623.09	5392.94	2.00043	2951.78	23.0176	4.00403	
309.08	1629.4	5527.97	2.00031	2858.03	19.0145	8.00611	
312.612	1587.48	5479.39	2.00024	2968.36	15.0121	9.01036	
316.144	1602.91	5445.87	1.00021	2972.96	20.0159	7.00797	
319.677	1608.43	5422.78	5.00174	2891.61	25.0252	5.00504	
323.209	1628.3	5591.59	3.00058	2999.77	23.0246	9.00907	
326.741	1638.24	5557.34	1.00015	2973.16	26.0222	5.00406	
330.274	1762.6	5623.35	3.00046	3111.26	21.016	9.00877	
333.806	1682.51	5819.06	1.00009	3148.58	30.0312	5.00492	
337.338	1869.74	5714.7	3.00064	3183.98	51.0795	14.0155	
340.871	2037.61	5765.63	2.00031	3356.17	77.2146	12.0215	
344.403	2394.11	5594	0	3363.54	128.532	16.0212	
347.935	3167.98	5061.13	4.00098	3287.44	222.559	19.0285	
351.468	4117.68	4480.27	2.00043	3032.22	365.036	19.0246	
355	5338.26	3724.41	3.00101	2515.44	531.628	23.0365	
357.453	6936.41	2796.41	5.00101	2033.13	764.707	22.0277	
359.906	8693.01	2178.35	1.00003	1487.91	978.84	23.033	
362.358	9882.97	1556.26	3.00101	1083.24	1204.42	11.0091	
364.811	11139.9	1095.26	1.00003	761.565	1231.34	11.0084	
367.264	11677.8	856.19	0	452.323	1423.5	10.0097	
369.717	12239.4	710.349	0	254.989	1505.74	8.00586	
372.17	12223.1	589.515	3.00064	176.985	1563.68	10.0092	
374.623	12789.3	483.111	1.00009	130.526	1567.76	9.00797	
377.075	12405.1	443.016	3.00027	71.1586	1598.82	3.00137	
379.528	12623.3	390.62	3.00058	49.0734	1652.14	4.0036	
381.981	12610	381.405	1.00009	31.0332	1557.16	2.0014	
384.434	12632.5	364.104	2.00043	23.0204	1483.43	5.0029	
386.887	12923.5	332.348	1.00027	22.0188	1576.87	1.00052	
389.34	12448	350.771	3.00027	16.0117	1547.36	5.00382	
391.792	12603.8	294.633	0	20.0159	1503.13	3.00186	
394.245	12442.5	303.799	2.00024	17.0109	1517.7	4.00244	
396.698	12560.7	264.117	1.00003	6.00183	1580.19	1.00064	
399.151	12635.9	307.932	1.00015	10.0043	1565.87	2.0011	
401.604	12581.1	281.42	3.00046	12.0051	1578.38	6.00256	
404.057	12711.2	286.49	0	13.0052	1542.99	3.0018	
406.509	12532.7	277.351	0	8.00293	1420.32	3.00211	
408.962	12536	292.597	0	8.00244	1576.28	3.00192	
411.415	12349.3	271.266	0	7.00217	1573.37	7.00492	
413.868	12467	244.82	0	14.0077	1459.55	2.00098	
416.321	12703.3	236.731	0	5.00107	1504.54	4.00342	
418.774	12425.6	252.958	2.00012	10.0037	1476.87	10.008	
421.226	12373.7	276.334	0	9.00357	1548.17	3.00192	
423.679	12286.1	276.334	2.00012	10.0037	1550.34	5.0026	
426.132	12662.4	257.021	0	3.00046	1430.14	6.00513	
428.585	12290.4	263.117	0	4.00067	1496.48	2.00147	
431.038	12405.9	253.958	0	8.00244	1512.94	5.0029	
433.491	12410.2	234.673	1.00009	4.00122	1532.14	5.00418	
435.943	12328.3	277.351	0	8.00195	1477.05	5.00473	
438.396	12556.4	242.805	0	8.00293	1483.24	3.00229	
440.849	12350.4	285.49	0	10.0037	1442.87	5.00302	
443.302	12337.9	260.053	1.00003	2.00037	1486.72	5.00382	
445.755	12123.7	269.199	1.00021	9.00357	1477.15	1.00058	
448.208	12088.1	259.053	1.00003	7.00192	1518.71	7.00663	
450.66	12301	256.005	1.00009	7.0015	1561.36	1.0004	
453.113	12440.4	268.216	0	10.0037	1472.49	4.00214	
455.566	12041.1	246.85	1.00021	3.00027	1506.16	4.00165	
458.019	12262.7	292.597	1.00021	8.00342	1464.74	8.00733	
460.472	12196.4	422.451	0	7.00235	1529.39	6.00385	
462.925	12237.2	879.172	2.00037	8.00342	1439.79	5.00351	
465.377	12114.1	2165.36	3.00046	8.0044	1530.49	22.0215	
467.83	11839.8	5015.24	1.00015	15.0124	1597.71	25.0267	
470.283	11587.3	10112.6	6.0011	21.0186	1628.03	60.1506	
472.736	11382.6	18229.4	13.0053	38.0721	1662.86	147.782	
475.189	10805.7	28415	11.0039	41.0941	1656.89	198.385	
477.641	9888.3	41396.1	14.0077	59.1463	1647.3	326.67	
480.094	8697.22	56893.1	13.0082	51.1202	1597.81	395.303	
482.547	7379.19	72005.7	14.0077	55.1431	1412.69	504.413	
485	6142.71	84910.6	15.0069	49.1034	1293.3	591.245	
487.453	4868.17	88934.8	10.0052	36.0727	1151.75	567.393	
489.906	4014.98	90521.2	8.00373	40.0838	972.532	650.651	
492.358	2876.91	93108.2	7.00241	28.0377	760.612	643.073	
494.811	2382.7	93046.1	13.0067	21.025	632.272	590.956	
497.264	1762.72	92952	5.00333	18.0245	496.575	503.85	
499.717	1328.51	93086.9	7.00357	14.0145	397.937	503.946	
502.17	1040.41	93162.4	6.0044	12.0103	338.618	461.666	
504.623	773.998	93757.8	8.00373	9.00632	262.198	450.322	
507.075	608.148	93499.2	9.00589	13.0114	187.225	396.888	
509.528	453.239	93657.4	2.00104	8.00525	146.663	338.638	
511.981	359.925	93732.6	3.00101	6.00366	154.775	332.43	
514.434	337.451	93664.6	5.0018	4.00244	87.2585	315.106	
516.887	274.3	93456.3	6.00348	7.00577	64.1449	338.577	
519.34	283.438	93244.1	5.00223	6.00256	43.0671	345.684	
521.792	218.463	93895.2	4.00073	10.0067	41.0564	287.543	
524.245	199.218	93446.3	3.00186	2.00134	40.0563	322.226	
526.698	195.158	93638.6	2.00037	2.00085	26.0286	288.625	
529.151	204.268	93721.4	3.00205	5.0029	29.0346	316.087	
531.604	189.087	93333.2	2.00067	5.00137	31.0445	307.894	
534.057	185.075	94056.7	1.00021	4.00171	21.0212	310.989	
536.509	173.931	93387.1	3.00076	6.00281	18.0143	314.067	
538.962	188.075	93852.4	4.00171	6.00421	24.022	295.688	
541.415	191.11	93475.1	4.00122	5.0026	26.0238	294.706	
543.868	184.052	93243.1	3.00046	7.00321	16.0127	339.535	
546.321	194.146	93162.2	1.00021	4.00122	18.0121	297.761	
548.774	187.075	93003	1.00027	4.00171	12.0064	315.028	
551.226	171.899	93294.3	4.00098	2.00098	14.0077	323.206	
553.679	177.974	93766.9	3.00064	2.00061	19.0133	318.244	
556.132	173.92	93786.1	2.00055	4.00244	8.00385	305.969	
558.585	207.319	93404.7	3.00095	6.00293	8.00342	323.306	
561.038	188.087	93108.2	5.0018	4.00171	14.0068	314.048	
563.491	167.857	93356.9	4.00195	6.00366	14.0142	325.282	
565.943	187.075	93305.9	2.00037	4.00122	8.00409	284.49	
568.396	155.747	93247	4.00116	2.0011	8.00244	327.246	
570.849	168.867	93441.8	5.00168	3.00082	9.00467	303.837	
573.302	160.786	93890.1	2.00031	1.00034	10.0049	272.3	
575.755	164.827	93607.2	1.00015	3.00119	12.0052	319.146	
578.208	179.985	92926.7	3.00144	5.00162	7.00327	291.615	
580.66	180.996	93964.3	4.00122	2.00012	9.00357	302.818	
583.113	143.628	93002.9	2.00116	2.00037	12.0061	328.287	
585.566	183.03	93520.4	3.00082	4.00269	13.0075	320.127	
588.019	152.709	93577.1	1.00003	0	14.0119	303.835	
590.472	184.041	93280.8	2.00085	6.00214	12.0066	305.893	
592.925	156.767	93177.9	4.00098	7.00363	6.00147	339.535	
595.377	188.075	93334.7	5.00278	0	12.0081	304.837	
597.83	186.052	93366	4.00104	3.00137	11.0071	341.598	
600.283	157.757	92914.8	5.00174	3.00137	6.00293	344.705	
602.736	175.952	93473.8	0	1.00021	16.0128	276.402	
605.189	173.92	92988.9	7.00192	2.00073	3.00119	305.912	
607.642	159.777	93169.3	2.00037	1.00052	12.0059	323.246	
610.094	178.974	93559.6	1.00021	3.00095	3.00168	331.33	
612.547	171.909	93447.1	3.00064	0	6.00226	266.15	
615	180.996	93780.2	0	5.0026	10.0061	280.47	
617.453	151.709	92899.2	3.00089	4.00098	3.00082	334.431	
619.906	186.064	93104.9	2.00073	0	3.00101	302.874	
622.359	171.899	93411.8	2.00061	2.00061	9.00498	301.855	
624.811	157.757	93470.5	2.00049	5.00168	14.006	347.706	
627.264	167.857	93629.8	5.0026	1.00034	9.00412	333.43	
629.717	147.672	93684.7	2.00073	2.00061	6.00256	313.99	
632.17	174.931	93810.5	3.00052	7.00492	8.00397	299.78	
634.623	174.941	93471.5	4.00098	6.00183	10.0031	315.048	
637.075	183.03	93503.6	1.00015	1.00046	4.0011	279.454	
639.528	193.134	93439.5	3.00101	0	7.00278	274.384	
641.981	189.087	93526.3	3.00064	6.00147	8.00293	305.883	
644.434	164.847	93227.4	3.00064	2.00024	9.00522	341.598	
646.887	155.738	93261.1	4.00183	9.00412	5.00137	302.874	
649.34	173.92	93351.7	5.0018	5.00229	5.00229	314.028	
651.792	164.826	93454	2.00037	5.00168	19.018	323.206	
654.245	152.709	93275.5	1.00009	4.00171	7.00363	311.047	
656.698	164.826	93466.4	0	4.00122	5.00076	304.893	
659.151	154.738	94065.4	3.00082	5.00296	6.0022	340.661	
661.604	171.899	93431.6	1.00003	1.00027	9.00357	326.267	
664.057	157.767	93758.4	3.00064	2.00037	3.00027	314.067	
666.509	156.757	94133.2	4.00177	3.00119	7.00321	302.799	
668.962	182.007	93627.6	1.00052	4.00165	6.00147	327.347	
671.415	206.319	93474.2	2.00024	1.00015	15.0087	323.246	
673.868	164.826	93320.1	2.00024	3.00101	9.00467	313.048	
676.321	174.941	93707	3.00137	5.00095	3.00101	308.944	
678.774	165.857	93315.5	2.00079	0	8.00342	321.173	
681.226	162.816	93390.2	0	3.00174	7.00278	317.126	
683.679	153.719	93232.8	2.00061	3.00064	5.00198	313.028	
686.132	170.899	93987.3	2.00037	5.0029	8.00342	316.106	
688.585	173.92	93786.6	1.0004	2.00049	3.00064	329.348	
691.038	148.682	93974.2	7.00412	1.0004	9.00522	300.78	
